INDEX VERSION 1.131+C:\Users\Ramangoud.Patil.CORPBRISTLECONE\Downloads\Old files\SpringIn28Minutes\.metadata\.plugins\org.eclipse.jdt.core
556223278.index
1282881829.index
359937746.index
919221787.index
1359200902.index
3688592429.index
4194704793.index
3815678261.index
3341230389.index
778379482.index
1816294153.index
2362378781.index
2806517596.index
304795289.index
1210067483.index
287491758.index
2683131020.index
3309673550.index
2268112822.index
2138560762.index
1149480733.index
883202618.index
44397824.index
4263671089.index
1777577833.index
2460701937.index
2765095185.index
759556273.index
4281429767.index
1571727175.index
3379250913.index
3584623046.index
3785139913.index
2474053581.index
3502323539.index
2526903126.index
595642959.index
202265980.index
3540907791.index
805524541.index
3091426870.index
2645930381.index
3770924677.index
3877592348.index
3375270980.index
3505397945.index
1774586851.index
4176497465.index
530142416.index
1728816673.index
3242771896.index
2569587368.index
2270050570.index
3097470394.index
1932432581.index
4038763300.index
4103285353.index
2370078663.index
504464257.index
3666484896.index
1053443690.index
3527426404.index
3634258804.index
2487761859.index
441129293.index
3625567312.index
1622986704.index
1623159615.index
56511831.index
2521165808.index
3554683404.index
8783963.index
1630219798.index
1962099799.index
1337621646.index
2368186929.index
2032588247.index
909740057.index
3463567785.index
2928584963.index
4194125160.index
3374771269.index
1427882979.index
1638235658.index
496608548.index
3483602580.index
1550739389.index
1901756450.index
1706671312.index
904053762.index
2359360270.index
778732119.index
3032671491.index
4222316621.index
3916020381.index
1939796589.index
1178816782.index
3372271340.index
3149818146.index
3430333301.index
1406426608.index
2922792648.index
1865797976.index
192882080.index
518142050.index
3507533548.index
3646379810.index
2374959647.index
2620629237.index
4284757960.index
3801115769.index
972986344.index
3238003508.index
3857264926.index
562433598.index
110459280.index
1981642377.index
